Potential applied (V)	WE(1).Current (A)
-0.6976318359375	-2.37213134765625E-05
-0.6951904296875	-2.29278564453125E-05
-0.6927490234375	-2.22137451171875E-05
-0.6903076171875	-2.15087890625E-05
-0.6878662109375	-2.07733154296875E-05
-0.6854248046875	-2.001953125E-05
-0.6829833984375	-1.93450927734375E-05
-0.6805419921875	-1.86614990234375E-05
-0.6781005859375	-1.79718017578125E-05
-0.6756591796875	-1.737060546875E-05
-0.6732177734375	-1.68121337890625E-05
-0.6707763671875	-1.63238525390625E-05
-0.6683349609375	-1.591796875E-05
-0.6658935546875	-1.54998779296875E-05
-0.6634521484375	-1.51641845703125E-05
-0.6610107421875	-1.4874267578125E-05
-0.6585693359375	-1.4532470703125E-05
-0.6561279296875	-1.42364501953125E-05
-0.6536865234375	-1.38885498046875E-05
-0.6512451171875	-1.35009765625E-05
-0.6488037109375	-1.31500244140625E-05
-0.6463623046875	-1.27716064453125E-05
-0.6439208984375	-1.236572265625E-05
-0.6414794921875	-1.20147705078125E-05
-0.6390380859375	-1.16729736328125E-05
-0.6365966796875	-1.138916015625E-05
-0.6341552734375	-1.1163330078125E-05
-0.6317138671875	-1.09283447265625E-05
-0.6292724609375	-1.07421875E-05
-0.6268310546875	-1.05865478515625E-05
-0.6243896484375	-1.03973388671875E-05
-0.6219482421875	-1.0260009765625E-05
-0.6195068359375	-1.0052490234375E-05
-0.6170654296875	-9.8419189453125E-06
-0.6146240234375	-9.613037109375E-06
-0.6121826171875	-9.375E-06
-0.6097412109375	-9.0972900390625E-06
-0.6072998046875	-8.8653564453125E-06
-0.6048583984375	-8.5845947265625E-06
-0.6024169921875	-8.355712890625E-06
-0.5999755859375	-8.1817626953125E-06
-0.5975341796875	-8.0596923828125E-06
-0.5950927734375	-7.916259765625E-06
-0.5926513671875	-7.8155517578125E-06
-0.5902099609375	-7.72705078125E-06
-0.5877685546875	-7.6416015625E-06
-0.5853271484375	-7.537841796875E-06
-0.5828857421875	-7.4066162109375E-06
-0.5804443359375	-7.2052001953125E-06
-0.5780029296875	-7.0648193359375E-06
-0.5755615234375	-6.8817138671875E-06
-0.5731201171875	-6.658935546875E-06
-0.5706787109375	-6.475830078125E-06
-0.5682373046875	-6.292724609375E-06
-0.5657958984375	-6.1370849609375E-06
-0.5633544921875	-6.048583984375E-06
-0.5609130859375	-5.926513671875E-06
-0.5584716796875	-5.841064453125E-06
-0.5560302734375	-5.816650390625E-06
-0.5535888671875	-5.72509765625E-06
-0.5511474609375	-5.6732177734375E-06
-0.5487060546875	-5.572509765625E-06
-0.5462646484375	-5.4443359375E-06
-0.5438232421875	-5.3253173828125E-06
-0.5413818359375	-5.181884765625E-06
-0.5389404296875	-4.986572265625E-06
-0.5364990234375	-4.8431396484375E-06
-0.5340576171875	-4.6630859375E-06
-0.5316162109375	-4.522705078125E-06
-0.5291748046875	-4.4281005859375E-06
-0.5267333984375	-4.3243408203125E-06
-0.5242919921875	-4.26025390625E-06
-0.5218505859375	-4.2510986328125E-06
-0.5194091796875	-4.1778564453125E-06
-0.5169677734375	-4.16259765625E-06
-0.5145263671875	-4.0740966796875E-06
-0.5120849609375	-3.9886474609375E-06
-0.5096435546875	-3.857421875E-06
-0.5072021484375	-3.753662109375E-06
-0.5047607421875	-3.57666015625E-06
-0.5023193359375	-3.4503173828125E-06
-0.4998779296875	-3.29833984375E-06
-0.4974365234375	-3.177490234375E-06
-0.4949951171875	-3.08563232421875E-06
-0.4925537109375	-3.0322265625E-06
-0.4901123046875	-2.9669189453125E-06
-0.4876708984375	-2.9388427734375E-06
-0.4852294921875	-2.89825439453125E-06
-0.4827880859375	-2.8729248046875E-06
-0.4803466796875	-2.83172607421875E-06
-0.4779052734375	-2.75054931640625E-06
-0.4754638671875	-2.63153076171875E-06
-0.4730224609375	-2.54180908203125E-06
-0.4705810546875	-2.39288330078125E-06
-0.4681396484375	-2.25555419921875E-06
-0.4656982421875	-2.1270751953125E-06
-0.4632568359375	-2.0062255859375E-06
-0.4608154296875	-1.91192626953125E-06
-0.4583740234375	-1.88232421875E-06
-0.4559326171875	-1.8048095703125E-06
-0.4534912109375	-1.768798828125E-06
-0.4510498046875	-1.80145263671875E-06
-0.4486083984375	-1.7596435546875E-06
-0.4461669921875	-1.74285888671875E-06
-0.4437255859375	-1.68487548828125E-06
-0.4412841796875	-1.55517578125E-06
-0.4388427734375	-1.44805908203125E-06
-0.4364013671875	-1.3568115234375E-06
-0.4339599609375	-1.2042236328125E-06
-0.4315185546875	-1.1285400390625E-06
-0.4290771484375	-1.015625E-06
-0.4266357421875	-9.5001220703125E-07
-0.4241943359375	-9.0423583984375E-07
-0.4217529296875	-8.6578369140625E-07
-0.4193115234375	-8.6090087890625E-07
-0.4168701171875	-8.6669921875E-07
-0.4144287109375	-8.660888671875E-07
-0.4119873046875	-8.5357666015625E-07
-0.4095458984375	-8.45947265625E-07
-0.4071044921875	-7.379150390625E-07
-0.4046630859375	-6.8359375E-07
-0.4022216796875	-5.548095703125E-07
-0.3997802734375	-4.30908203125E-07
-0.3973388671875	-2.8564453125E-07
-0.3948974609375	-1.7364501953125E-07
-0.3924560546875	-1.2054443359375E-07
-0.3900146484375	-1.031494140625E-07
-0.3875732421875	-8.36181640625E-08
-0.3851318359375	-1.1016845703125E-07
-0.3826904296875	-1.4984130859375E-07
-0.3802490234375	-1.336669921875E-07
-0.3778076171875	-1.4068603515625E-07
-0.3753662109375	-9.94873046875E-08
-0.3729248046875	-7.32421875E-09
-0.3704833984375	1.544189453125E-07
-0.3680419921875	2.2247314453125E-07
-0.3656005859375	3.9306640625E-07
-0.3631591796875	4.62646484375E-07
-0.3607177734375	5.828857421875E-07
-0.3582763671875	5.50537109375E-07
-0.3558349609375	6.2713623046875E-07
-0.3533935546875	5.3741455078125E-07
-0.3509521484375	6.0791015625E-07
-0.3485107421875	5.5084228515625E-07
-0.3460693359375	5.5694580078125E-07
-0.3436279296875	6.6619873046875E-07
-0.3411865234375	7.0404052734375E-07
-0.3387451171875	7.8857421875E-07
-0.3363037109375	8.880615234375E-07
-0.3338623046875	1.05926513671875E-06
-0.3314208984375	1.00494384765625E-06
-0.3289794921875	1.10626220703125E-06
-0.3265380859375	1.08062744140625E-06
-0.3240966796875	1.05499267578125E-06
-0.3216552734375	9.89990234375E-07
-0.3192138671875	1.0540771484375E-06
-0.3167724609375	1.082763671875E-06
-0.3143310546875	1.23321533203125E-06
-0.3118896484375	1.21307373046875E-06
-0.3094482421875	1.37237548828125E-06
-0.3070068359375	1.4019775390625E-06
-0.3045654296875	1.4813232421875E-06
-0.3021240234375	1.39678955078125E-06
-0.2996826171875	1.383056640625E-06
-0.2972412109375	1.5301513671875E-06
-0.2947998046875	1.4300537109375E-06
-0.2923583984375	1.3787841796875E-06
-0.2899169921875	1.19598388671875E-06
-0.2874755859375	1.4752197265625E-06
-0.2850341796875	1.51275634765625E-06
-0.2825927734375	1.7047119140625E-06
-0.2801513671875	1.7242431640625E-06
-0.2777099609375	2.03948974609375E-06
-0.2752685546875	1.84295654296875E-06
-0.2728271484375	2.08709716796875E-06
-0.2703857421875	1.84967041015625E-06
-0.2679443359375	1.80084228515625E-06
-0.2655029296875	1.61407470703125E-06
-0.2630615234375	1.66015625E-06
-0.2606201171875	1.66046142578125E-06
-0.2581787109375	1.6448974609375E-06
-0.2557373046875	1.69281005859375E-06
-0.2532958984375	1.8914794921875E-06
-0.2508544921875	2.32696533203125E-06
-0.2484130859375	2.314453125E-06
-0.2459716796875	2.5982666015625E-06
-0.2435302734375	2.7984619140625E-06
-0.2410888671875	2.794189453125E-06
-0.2386474609375	2.77679443359375E-06
-0.2362060546875	2.42584228515625E-06
-0.2337646484375	2.35687255859375E-06
-0.2313232421875	2.327880859375E-06
-0.2288818359375	1.86309814453125E-06
-0.2264404296875	2.12738037109375E-06
-0.2239990234375	2.05657958984375E-06
-0.2215576171875	2.4652099609375E-06
-0.2191162109375	2.3553466796875E-06
-0.2166748046875	2.74139404296875E-06
-0.2142333984375	2.89306640625E-06
-0.2117919921875	3.21746826171875E-06
-0.2093505859375	3.782958984375E-06
-0.2069091796875	3.08868408203125E-06
-0.2044677734375	2.48565673828125E-06
-0.2020263671875	2.20184326171875E-06
-0.1995849609375	2.10906982421875E-06
-0.1971435546875	1.95953369140625E-06
-0.1947021484375	2.4737548828125E-06
-0.1922607421875	2.9266357421875E-06
-0.1898193359375	3.2275390625E-06
-0.1873779296875	3.57177734375E-06
-0.1849365234375	4.04052734375E-06
-0.1824951171875	3.9154052734375E-06
-0.1800537109375	4.217529296875E-06
-0.1776123046875	3.7628173828125E-06
-0.1751708984375	4.0496826171875E-06
-0.1727294921875	3.6102294921875E-06
-0.1702880859375	3.11279296875E-06
-0.1678466796875	2.52685546875E-06
-0.1654052734375	2.410888671875E-06
-0.1629638671875	2.6611328125E-06
-0.1605224609375	2.25830078125E-06
-0.1580810546875	3.594970703125E-06
-0.1556396484375	3.7200927734375E-06
-0.1531982421875	4.644775390625E-06
-0.1507568359375	4.9285888671875E-06
-0.1483154296875	5.6976318359375E-06
-0.1458740234375	6.0333251953125E-06
-0.1434326171875	5.8807373046875E-06
-0.1409912109375	4.9407958984375E-06
-0.1385498046875	4.84619140625E-06
-0.1361083984375	4.35791015625E-06
-0.1336669921875	3.4149169921875E-06
-0.1312255859375	3.619384765625E-06
-0.1287841796875	3.40576171875E-06
-0.1263427734375	4.412841796875E-06
-0.1239013671875	5.047607421875E-06
-0.1214599609375	6.3934326171875E-06
-0.1190185546875	6.8817138671875E-06
-0.1165771484375	7.745361328125E-06
-0.1141357421875	7.09228515625E-06
-0.1116943359375	7.92236328125E-06
-0.1092529296875	6.48193359375E-06
-0.1068115234375	7.183837890625E-06
-0.1043701171875	5.8380126953125E-06
-0.1019287109375	6.53076171875E-06
-0.0994873046875	5.2001953125E-06
-0.0970458984375	5.6121826171875E-06
-0.0946044921875	6.402587890625E-06
-0.0921630859375	8.4014892578125E-06
-0.0897216796875	9.417724609375E-06
-0.0872802734375	1.0400390625E-05
-0.0848388671875	1.029052734375E-05
-0.0823974609375	1.0748291015625E-05
-0.0799560546875	1.09405517578125E-05
-0.0775146484375	1.0791015625E-05
-0.0750732421875	1.02447509765625E-05
-0.0726318359375	1.06964111328125E-05
-0.0701904296875	9.295654296875E-06
-0.0677490234375	8.7738037109375E-06
-0.0653076171875	9.228515625E-06
-0.0628662109375	8.9569091796875E-06
-0.0604248046875	1.04766845703125E-05
-0.0579833984375	1.19476318359375E-05
-0.0555419921875	1.34033203125E-05
-0.0531005859375	1.44134521484375E-05
-0.0506591796875	1.46392822265625E-05
-0.0482177734375	1.488037109375E-05
-0.0457763671875	1.6192626953125E-05
-0.0433349609375	1.571044921875E-05
-0.0408935546875	1.5594482421875E-05
-0.0384521484375	1.39984130859375E-05
-0.0360107421875	1.4764404296875E-05
-0.0335693359375	1.4923095703125E-05
-0.0311279296875	1.524658203125E-05
-0.0286865234375	1.4190673828125E-05
-0.0262451171875	1.5533447265625E-05
-0.0238037109375	1.6064453125E-05
-0.0213623046875	1.898193359375E-05
-0.0189208984375	1.982421875E-05
-0.0164794921875	2.264404296875E-05
-0.0140380859375	2.32147216796875E-05
-0.0115966796875	2.3736572265625E-05
-0.0091552734375	2.2137451171875E-05
-0.0067138671875	2.215576171875E-05
-0.0042724609375	2.30072021484375E-05
-0.0018310546875	2.2528076171875E-05
0.0006103515625	2.16766357421875E-05
0.0030517578125	2.191162109375E-05
0.0054931640625	2.423095703125E-05
0.0079345703125	2.49267578125E-05
0.0103759765625	2.7215576171875E-05
0.0128173828125	2.87994384765625E-05
0.0152587890625	3.06182861328125E-05
0.0177001953125	3.3563232421875E-05
0.0201416015625	3.37432861328125E-05
0.0225830078125	3.33831787109375E-05
0.0250244140625	3.3380126953125E-05
0.0274658203125	3.30810546875E-05
0.0299072265625	3.35968017578125E-05
0.0323486328125	3.3294677734375E-05
0.0347900390625	3.4710693359375E-05
0.0372314453125	3.47564697265625E-05
0.0396728515625	3.74908447265625E-05
0.0421142578125	3.973388671875E-05
0.0445556640625	4.32861328125E-05
0.0469970703125	4.3731689453125E-05
0.0494384765625	4.7119140625E-05
0.0518798828125	4.742431640625E-05
0.0543212890625	4.6539306640625E-05
0.0567626953125	4.6295166015625E-05
0.0592041015625	4.5654296875E-05
0.0616455078125	4.77294921875E-05
0.0640869140625	5.0262451171875E-05
0.0665283203125	5.0323486328125E-05
0.0689697265625	5.279541015625E-05
0.0714111328125	5.5145263671875E-05
0.0738525390625	5.77392578125E-05
0.0762939453125	6.18896484375E-05
0.0787353515625	6.2103271484375E-05
0.0811767578125	6.3018798828125E-05
0.0836181640625	6.2591552734375E-05
0.0860595703125	6.4208984375E-05
0.0885009765625	6.34765625E-05
0.0909423828125	6.4544677734375E-05
0.0933837890625	6.6986083984375E-05
0.0958251953125	7.11669921875E-05
0.0982666015625	7.537841796875E-05
0.1007080078125	7.7239990234375E-05
0.1031494140625	8.1085205078125E-05
0.1055908203125	8.184814453125E-05
0.1080322265625	8.4930419921875E-05
0.1104736328125	8.5845947265625E-05
0.1129150390625	8.7005615234375E-05
0.1153564453125	8.6883544921875E-05
0.1177978515625	8.8043212890625E-05
0.1202392578125	9.051513671875E-05
0.1226806640625	9.2987060546875E-05
0.1251220703125	9.3109130859375E-05
0.1275634765625	9.6649169921875E-05
0.1300048828125	0.00010101318359375
0.1324462890625	0.00010491943359375
0.1348876953125	0.000109771728515625
0.1373291015625	0.0001119384765625
0.1397705078125	0.000112701416015625
0.1422119140625	0.000113311767578125
0.1446533203125	0.000115814208984375
0.1470947265625	0.000115203857421875
0.1495361328125	0.0001182861328125
0.1519775390625	0.00012060546875
0.1544189453125	0.00012432861328125
0.1568603515625	0.000128265380859375
0.1593017578125	0.0001334228515625
0.1617431640625	0.000138458251953125
0.1641845703125	0.000143218994140625
0.1666259765625	0.00014532470703125
0.1690673828125	0.0001474609375
0.1715087890625	0.0001519775390625
0.1739501953125	0.000152923583984375
0.1763916015625	0.00015570068359375
0.1788330078125	0.000154754638671875
0.1812744140625	0.00015899658203125
0.1837158203125	0.000160797119140625
0.1861572265625	0.000164337158203125
0.1885986328125	0.000168304443359375
0.1910400390625	0.000172698974609375
0.1934814453125	0.000179229736328125
0.1959228515625	0.00018115234375
0.1983642578125	0.00018853759765625
0.2008056640625	0.000191986083984375
0.2032470703125	0.0001962890625
0.2056884765625	0.000199005126953125
0.2081298828125	0.00020123291015625
0.2105712890625	0.000200836181640625
0.2130126953125	0.00020208740234375
0.2154541015625	0.000208404541015625
0.2178955078125	0.0002103271484375
0.2203369140625	0.00021661376953125
0.2227783203125	0.00021807861328125
0.2252197265625	0.0002257080078125
0.2276611328125	0.00023223876953125
0.2301025390625	0.000241302490234375
0.2325439453125	0.000240020751953125
0.2349853515625	0.000244598388671875
0.2374267578125	0.000249267578125
0.2398681640625	0.000253387451171875
0.2423095703125	0.0002537841796875
0.2447509765625	0.0002587890625
0.2471923828125	0.000257354736328125
0.2496337890625	0.000261993408203125
0.2520751953125	0.0002642822265625
0.2545166015625	0.00027496337890625
0.2569580078125	0.000278656005859375
0.2593994140625	0.00028558349609375
0.2618408203125	0.0002919921875
0.2642822265625	0.000293670654296875
0.2667236328125	0.00029693603515625
0.2691650390625	0.000304168701171875
0.2716064453125	0.000305267333984375
0.2740478515625	0.000308929443359375
0.2764892578125	0.00031097412109375
0.2789306640625	0.000311614990234375
0.2813720703125	0.000316864013671875
0.2838134765625	0.000321563720703125
0.2862548828125	0.000325408935546875
0.2886962890625	0.0003299560546875
0.2911376953125	0.000337127685546875
0.2935791015625	0.00034161376953125
0.2960205078125	0.0003492431640625
0.2984619140625	0.000356658935546875
0.3009033203125	0.000359100341796875
0.3033447265625	0.000359283447265625
0.3057861328125	0.000360076904296875
0.3082275390625	0.0003643798828125
0.3106689453125	0.000368499755859375
0.3131103515625	0.00036749267578125
0.3155517578125	0.000370697021484375
0.3179931640625	0.00037921142578125
0.3204345703125	0.000383514404296875
0.3228759765625	0.000389892578125
0.3253173828125	0.000393463134765625
0.3277587890625	0.0004046630859375
0.3302001953125	0.000409210205078125
0.3326416015625	0.0004110107421875
0.3350830078125	0.000412567138671875
0.3375244140625	0.00041009521484375
0.3399658203125	0.00041583251953125
0.3424072265625	0.000418548583984375
0.3448486328125	0.0004197998046875
0.3472900390625	0.00042437744140625
0.3497314453125	0.000431640625
0.3521728515625	0.00043438720703125
0.3546142578125	0.00043975830078125
0.3570556640625	0.000445404052734375
0.3594970703125	0.000448974609375
0.3619384765625	0.00045611572265625
0.3643798828125	0.000458160400390625
0.3668212890625	0.0004593505859375
0.3692626953125	0.000463592529296875
0.3717041015625	0.000465240478515625
0.3741455078125	0.000470458984375
0.3765869140625	0.00046575927734375
0.3790283203125	0.000465576171875
0.3814697265625	0.000471466064453125
0.3839111328125	0.0004749755859375
0.3863525390625	0.0004864501953125
0.3887939453125	0.00048980712890625
0.3912353515625	0.00049468994140625
0.3936767578125	0.00049713134765625
0.3961181640625	0.00050079345703125
0.3985595703125	0.00050048828125
0.4010009765625	0.00051116943359375
0.4034423828125	0.000509033203125
0.4058837890625	0.0005084228515625
0.4083251953125	0.00050933837890625
0.4107666015625	0.0005084228515625
0.4132080078125	0.0005120849609375
0.4156494140625	0.00052642822265625
0.4180908203125	0.00052703857421875
0.4205322265625	0.00053436279296875
0.4229736328125	0.00053466796875
0.4254150390625	0.00053680419921875
0.4278564453125	0.00054473876953125
0.4302978515625	0.00055023193359375
0.4327392578125	0.0005517578125
0.4351806640625	0.00055023193359375
0.4376220703125	0.000550537109375
0.4400634765625	0.00054046630859375
0.4425048828125	0.00054931640625
0.4449462890625	0.000548095703125
0.4473876953125	0.000550537109375
0.4498291015625	0.0005560302734375
0.4522705078125	0.00056671142578125
0.4547119140625	0.00057373046875
0.4571533203125	0.000574951171875
0.4595947265625	0.000574951171875
0.4620361328125	0.00058319091796875
0.4644775390625	0.0005889892578125
0.4669189453125	0.00058380126953125
0.4693603515625	0.0005816650390625
0.4718017578125	0.00058135986328125
0.4742431640625	0.000587158203125
0.4766845703125	0.00058746337890625
0.4791259765625	0.00058624267578125
0.4815673828125	0.00059661865234375
0.4840087890625	0.0006036376953125
0.4864501953125	0.00060577392578125
0.4888916015625	0.0006134033203125
0.4913330078125	0.00061248779296875
0.4937744140625	0.00061981201171875
0.4962158203125	0.0006103515625
0.4986572265625	0.000611572265625
0.5010986328125	0.00060546875
0.5035400390625	0.00060546875
0.5059814453125	0.0006085205078125
0.5084228515625	0.00061737060546875
0.5108642578125	0.00061981201171875
0.5133056640625	0.00063140869140625
0.5157470703125	0.00063232421875
0.5181884765625	0.00063690185546875
0.5206298828125	0.0006341552734375
0.5230712890625	0.0006353759765625
0.5255126953125	0.0006329345703125
0.5279541015625	0.0006329345703125
0.5303955078125	0.00063385009765625
0.5328369140625	0.00063568115234375
0.5352783203125	0.000634765625
0.5377197265625	0.00063995361328125
0.5401611328125	0.000643310546875
0.5426025390625	0.00065460205078125
0.5450439453125	0.0006610107421875
0.5474853515625	0.00066436767578125
0.5499267578125	0.00066558837890625
0.5523681640625	0.00066192626953125
0.5548095703125	0.000667724609375
0.5572509765625	0.000667724609375
0.5596923828125	0.0006622314453125
0.5621337890625	0.0006561279296875
0.5645751953125	0.0006622314453125
0.5670166015625	0.00066314697265625
0.5694580078125	0.000665283203125
0.5718994140625	0.00066986083984375
0.5743408203125	0.000672607421875
0.5767822265625	0.0006781005859375
0.5792236328125	0.0006817626953125
0.5816650390625	0.00068359375
0.5841064453125	0.00068450927734375
0.5865478515625	0.00068939208984375
0.5889892578125	0.000694580078125
0.5914306640625	0.00068939208984375
0.5938720703125	0.00069061279296875
0.5963134765625	0.00069122314453125
0.5987548828125	0.0006878662109375
0.6011962890625	0.0006829833984375
0.6036376953125	0.0006829833984375
0.6060791015625	0.00069671630859375
0.6085205078125	0.00070892333984375
0.6109619140625	0.00071044921875
0.6134033203125	0.00071197509765625
0.6158447265625	0.0007135009765625
0.6182861328125	0.00070831298828125
0.6207275390625	0.0007080078125
0.6231689453125	0.00071075439453125
0.6256103515625	0.00071014404296875
0.6280517578125	0.000709228515625
0.6304931640625	0.00071502685546875
0.6329345703125	0.0007080078125
0.6353759765625	0.00071258544921875
0.6378173828125	0.000714111328125
0.6402587890625	0.00072662353515625
0.6427001953125	0.0007269287109375
0.6451416015625	0.00073516845703125
0.6475830078125	0.0007269287109375
0.6500244140625	0.0007318115234375
0.6524658203125	0.0007391357421875
0.6549072265625	0.00073394775390625
0.6573486328125	0.00073883056640625
0.6597900390625	0.0007342529296875
0.6622314453125	0.0007281494140625
0.6646728515625	0.0007244873046875
0.6671142578125	0.0007293701171875
0.6695556640625	0.00072784423828125
0.6719970703125	0.00074066162109375
0.6744384765625	0.00074005126953125
0.6768798828125	0.000748291015625
0.6793212890625	0.00074432373046875
0.6817626953125	0.00075042724609375
0.6842041015625	0.0007489013671875
0.6866455078125	0.00076080322265625
0.6890869140625	0.00076019287109375
0.6915283203125	0.00076507568359375
0.6939697265625	0.000760498046875
0.6964111328125	0.00075958251953125
0.6988525390625	0.000760498046875
0.7012939453125	0.0007684326171875
0.7037353515625	0.00075927734375
0.7061767578125	0.00076019287109375
0.7086181640625	0.000760498046875
0.7110595703125	0.00076171875
0.7135009765625	0.00077239990234375
0.7159423828125	0.00077301025390625
0.7183837890625	0.0007781982421875
0.7208251953125	0.0007861328125
0.7232666015625	0.000792236328125
0.7257080078125	0.00079559326171875
0.7281494140625	0.00080657958984375
0.7305908203125	0.0008056640625
0.7330322265625	0.0008099365234375
0.7354736328125	0.00080413818359375
0.7379150390625	0.00081024169921875
0.7403564453125	0.00080413818359375
0.7427978515625	0.0008135986328125
0.7452392578125	0.00081695556640625
0.7476806640625	0.00083465576171875
0.7501220703125	0.00084014892578125
0.7525634765625	0.00085601806640625
0.7550048828125	0.0008642578125
0.7574462890625	0.00087432861328125
0.7598876953125	0.00087799072265625
0.7623291015625	0.000877685546875
0.7647705078125	0.000887451171875
0.7672119140625	0.0008941650390625
0.7696533203125	0.000899658203125
0.7720947265625	0.00090789794921875
0.7745361328125	0.00091156005859375
0.7769775390625	0.0009283447265625
0.7794189453125	0.000941162109375
0.7818603515625	0.000955810546875
0.7843017578125	0.0009716796875
0.7867431640625	0.00098297119140625
0.7891845703125	0.00099700927734375
0.7916259765625	0.00100860595703125
0.7940673828125	0.0010205078125
0.7965087890625	0.001029052734375
0.7989501953125	0.0010455322265625
0.8013916015625	0.0010577392578125
0.8038330078125	0.0010784912109375
0.8062744140625	0.00109161376953125
0.8087158203125	0.0011077880859375
0.8111572265625	0.00112548828125
0.8135986328125	0.00114715576171875
0.8160400390625	0.0011688232421875
0.8184814453125	0.0011871337890625
0.8209228515625	0.00120361328125
0.8233642578125	0.0012176513671875
0.8258056640625	0.00123382568359375
0.8282470703125	0.001251220703125
0.8306884765625	0.00127197265625
0.8331298828125	0.0012945556640625
0.8355712890625	0.00131317138671875
0.8380126953125	0.00132781982421875
0.8404541015625	0.0013519287109375
0.8428955078125	0.00136749267578125
0.8453369140625	0.0013970947265625
0.8477783203125	0.00142181396484375
0.8502197265625	0.001448974609375
0.8526611328125	0.00147064208984375
0.8551025390625	0.00149200439453125
0.8575439453125	0.0015106201171875
0.8599853515625	0.0015362548828125
0.8624267578125	0.0015545654296875
0.8648681640625	0.00157440185546875
0.8673095703125	0.00159698486328125
0.8697509765625	0.00162322998046875
0.8721923828125	0.00165130615234375
0.8746337890625	0.00167388916015625
0.8770751953125	0.0016998291015625
0.8795166015625	0.00172821044921875
0.8819580078125	0.0017510986328125
0.8843994140625	0.0017816162109375
0.8868408203125	0.00180633544921875
0.8892822265625	0.00183197021484375
0.8917236328125	0.00185760498046875
0.8941650390625	0.0018817138671875
0.8966064453125	0.0019085693359375
0.8990478515625	0.00193115234375
0.9014892578125	0.0019598388671875
