Potential applied (V)	WE(1).Current (A)
-0.6976318359375	-1.95648193359375E-05
-0.6951904296875	-1.875E-05
-0.6927490234375	-1.810302734375E-05
-0.6903076171875	-1.7626953125E-05
-0.6878662109375	-1.72576904296875E-05
-0.6854248046875	-1.693115234375E-05
-0.6829833984375	-1.66748046875E-05
-0.6805419921875	-1.644287109375E-05
-0.6781005859375	-1.6131591796875E-05
-0.6756591796875	-1.57989501953125E-05
-0.6732177734375	-1.5338134765625E-05
-0.6707763671875	-1.48162841796875E-05
-0.6683349609375	-1.4288330078125E-05
-0.6658935546875	-1.37176513671875E-05
-0.6634521484375	-1.31500244140625E-05
-0.6610107421875	-1.26800537109375E-05
-0.6585693359375	-1.22528076171875E-05
-0.6561279296875	-1.1962890625E-05
-0.6536865234375	-1.1767578125E-05
-0.6512451171875	-1.15814208984375E-05
-0.6488037109375	-1.1456298828125E-05
-0.6463623046875	-1.1358642578125E-05
-0.6439208984375	-1.11846923828125E-05
-0.6414794921875	-1.097412109375E-05
-0.6390380859375	-1.06658935546875E-05
-0.6365966796875	-1.025390625E-05
-0.6341552734375	-9.832763671875E-06
-0.6317138671875	-9.3780517578125E-06
-0.6292724609375	-8.88671875E-06
-0.6268310546875	-8.4747314453125E-06
-0.6243896484375	-8.0810546875E-06
-0.6219482421875	-7.7545166015625E-06
-0.6195068359375	-7.5469970703125E-06
-0.6170654296875	-7.4432373046875E-06
-0.6146240234375	-7.32421875E-06
-0.6121826171875	-7.2601318359375E-06
-0.6097412109375	-7.1563720703125E-06
-0.6072998046875	-7.025146484375E-06
-0.6048583984375	-6.8084716796875E-06
-0.6024169921875	-6.50634765625E-06
-0.5999755859375	-6.1553955078125E-06
-0.5975341796875	-5.79833984375E-06
-0.5950927734375	-5.401611328125E-06
-0.5926513671875	-5.023193359375E-06
-0.5902099609375	-4.681396484375E-06
-0.5877685546875	-4.412841796875E-06
-0.5853271484375	-4.2449951171875E-06
-0.5828857421875	-4.1961669921875E-06
-0.5804443359375	-4.0924072265625E-06
-0.5780029296875	-4.058837890625E-06
-0.5755615234375	-4.0496826171875E-06
-0.5731201171875	-3.985595703125E-06
-0.5706787109375	-3.8421630859375E-06
-0.5682373046875	-3.64990234375E-06
-0.5657958984375	-3.35693359375E-06
-0.5633544921875	-3.1097412109375E-06
-0.5609130859375	-2.8167724609375E-06
-0.5584716796875	-2.49969482421875E-06
-0.5560302734375	-2.2601318359375E-06
-0.5535888671875	-2.0538330078125E-06
-0.5511474609375	-1.94183349609375E-06
-0.5487060546875	-1.91436767578125E-06
-0.5462646484375	-1.873779296875E-06
-0.5438232421875	-1.8768310546875E-06
-0.5413818359375	-1.932373046875E-06
-0.5389404296875	-1.91162109375E-06
-0.5364990234375	-1.87164306640625E-06
-0.5340576171875	-1.74346923828125E-06
-0.5316162109375	-1.544189453125E-06
-0.5291748046875	-1.36932373046875E-06
-0.5267333984375	-1.14898681640625E-06
-0.5242919921875	-8.70361328125E-07
-0.5218505859375	-6.8023681640625E-07
-0.5194091796875	-5.01708984375E-07
-0.5169677734375	-4.3121337890625E-07
-0.5145263671875	-4.1229248046875E-07
-0.5120849609375	-4.180908203125E-07
-0.5096435546875	-4.4830322265625E-07
-0.5072021484375	-5.28564453125E-07
-0.5047607421875	-5.517578125E-07
-0.5023193359375	-5.6549072265625E-07
-0.4998779296875	-4.7332763671875E-07
-0.4974365234375	-3.3447265625E-07
-0.4949951171875	-2.2857666015625E-07
-0.4925537109375	-2.532958984375E-08
-0.4901123046875	2.3284912109375E-07
-0.4876708984375	3.9520263671875E-07
-0.4852294921875	5.5084228515625E-07
-0.4827880859375	5.938720703125E-07
-0.4803466796875	6.2408447265625E-07
-0.4779052734375	6.2347412109375E-07
-0.4754638671875	6.103515625E-07
-0.4730224609375	4.9896240234375E-07
-0.4705810546875	4.3670654296875E-07
-0.4681396484375	3.94287109375E-07
-0.4656982421875	4.449462890625E-07
-0.4632568359375	5.3375244140625E-07
-0.4608154296875	6.4483642578125E-07
-0.4583740234375	7.9254150390625E-07
-0.4559326171875	9.8602294921875E-07
-0.4534912109375	1.12060546875E-06
-0.4510498046875	1.24786376953125E-06
-0.4486083984375	1.29638671875E-06
-0.4461669921875	1.3226318359375E-06
-0.4437255859375	1.3433837890625E-06
-0.4412841796875	1.27197265625E-06
-0.4388427734375	1.17034912109375E-06
-0.4364013671875	1.12335205078125E-06
-0.4339599609375	1.05682373046875E-06
-0.4315185546875	1.07635498046875E-06
-0.4290771484375	1.12335205078125E-06
-0.4266357421875	1.201171875E-06
-0.4241943359375	1.31317138671875E-06
-0.4217529296875	1.47918701171875E-06
-0.4193115234375	1.5789794921875E-06
-0.4168701171875	1.71722412109375E-06
-0.4144287109375	1.77337646484375E-06
-0.4119873046875	1.78985595703125E-06
-0.4095458984375	1.79962158203125E-06
-0.4071044921875	1.76513671875E-06
-0.4046630859375	1.6552734375E-06
-0.4022216796875	1.5948486328125E-06
-0.3997802734375	1.5155029296875E-06
-0.3973388671875	1.51092529296875E-06
-0.3948974609375	1.52252197265625E-06
-0.3924560546875	1.59637451171875E-06
-0.3900146484375	1.6949462890625E-06
-0.3875732421875	1.82708740234375E-06
-0.3851318359375	1.9342041015625E-06
-0.3826904296875	2.05474853515625E-06
-0.3802490234375	2.1197509765625E-06
-0.3778076171875	2.13958740234375E-06
-0.3753662109375	2.11090087890625E-06
-0.3729248046875	2.078857421875E-06
-0.3704833984375	1.98333740234375E-06
-0.3680419921875	1.917724609375E-06
-0.3656005859375	1.8365478515625E-06
-0.3631591796875	1.8072509765625E-06
-0.3607177734375	1.81396484375E-06
-0.3582763671875	1.88995361328125E-06
-0.3558349609375	1.9464111328125E-06
-0.3533935546875	2.06756591796875E-06
-0.3509521484375	2.1697998046875E-06
-0.3485107421875	2.28607177734375E-06
-0.3460693359375	2.359619140625E-06
-0.3436279296875	2.38067626953125E-06
-0.3411865234375	2.33245849609375E-06
-0.3387451171875	2.31689453125E-06
-0.3363037109375	2.23236083984375E-06
-0.3338623046875	2.147216796875E-06
-0.3314208984375	2.07275390625E-06
-0.3289794921875	2.0233154296875E-06
-0.3265380859375	2.0233154296875E-06
-0.3240966796875	2.09381103515625E-06
-0.3216552734375	2.12371826171875E-06
-0.3192138671875	2.2161865234375E-06
-0.3167724609375	2.33673095703125E-06
-0.3143310546875	2.43255615234375E-06
-0.3118896484375	2.50762939453125E-06
-0.3094482421875	2.52899169921875E-06
-0.3070068359375	2.48626708984375E-06
-0.3045654296875	2.4676513671875E-06
-0.3021240234375	2.40386962890625E-06
-0.2996826171875	2.29888916015625E-06
-0.2972412109375	2.22869873046875E-06
-0.2947998046875	2.16278076171875E-06
-0.2923583984375	2.154541015625E-06
-0.2899169921875	2.21710205078125E-06
-0.2874755859375	2.24365234375E-06
-0.2850341796875	2.30865478515625E-06
-0.2825927734375	2.431640625E-06
-0.2801513671875	2.515869140625E-06
-0.2777099609375	2.5970458984375E-06
-0.2752685546875	2.61871337890625E-06
-0.2728271484375	2.57598876953125E-06
-0.2703857421875	2.559814453125E-06
-0.2679443359375	2.50396728515625E-06
-0.2655029296875	2.39044189453125E-06
-0.2630615234375	2.32177734375E-06
-0.2606201171875	2.2479248046875E-06
-0.2581787109375	2.2381591796875E-06
-0.2557373046875	2.27264404296875E-06
-0.2532958984375	2.2979736328125E-06
-0.2508544921875	2.35931396484375E-06
-0.2484130859375	2.48626708984375E-06
-0.2459716796875	2.55706787109375E-06
-0.2435302734375	2.64007568359375E-06
-0.2410888671875	2.65472412109375E-06
-0.2386474609375	2.640380859375E-06
-0.2362060546875	2.61444091796875E-06
-0.2337646484375	2.5616455078125E-06
-0.2313232421875	2.44659423828125E-06
-0.2288818359375	2.386474609375E-06
-0.2264404296875	2.30194091796875E-06
-0.2239990234375	2.291259765625E-06
-0.2215576171875	2.2991943359375E-06
-0.2191162109375	2.333984375E-06
-0.2166748046875	2.37884521484375E-06
-0.2142333984375	2.5E-06
-0.2117919921875	2.56561279296875E-06
-0.2093505859375	2.65228271484375E-06
-0.2069091796875	2.672119140625E-06
-0.2044677734375	2.67730712890625E-06
-0.2020263671875	2.64312744140625E-06
-0.1995849609375	2.59613037109375E-06
-0.1971435546875	2.48504638671875E-06
-0.1947021484375	2.42706298828125E-06
-0.1922607421875	2.34161376953125E-06
-0.1898193359375	2.314453125E-06
-0.1873779296875	2.30621337890625E-06
-0.1849365234375	2.3431396484375E-06
-0.1824951171875	2.38311767578125E-06
-0.1800537109375	2.4884033203125E-06
-0.1776123046875	2.54974365234375E-06
-0.1751708984375	2.64190673828125E-06
-0.1727294921875	2.6824951171875E-06
-0.1702880859375	2.694091796875E-06
-0.1678466796875	2.64678955078125E-06
-0.1654052734375	2.61749267578125E-06
-0.1629638671875	2.52471923828125E-06
-0.1605224609375	2.45635986328125E-06
-0.1580810546875	2.36846923828125E-06
-0.1556396484375	2.32208251953125E-06
-0.1531982421875	2.30743408203125E-06
-0.1507568359375	2.3614501953125E-06
-0.1483154296875	2.37701416015625E-06
-0.1458740234375	2.45697021484375E-06
-0.1434326171875	2.5390625E-06
-0.1409912109375	2.61932373046875E-06
-0.1385498046875	2.67608642578125E-06
-0.1361083984375	2.69561767578125E-06
-0.1336669921875	2.6446533203125E-06
-0.1312255859375	2.62420654296875E-06
-0.1287841796875	2.56622314453125E-06
-0.1263427734375	2.46856689453125E-06
-0.1239013671875	2.39654541015625E-06
-0.1214599609375	2.33551025390625E-06
-0.1190185546875	2.3150634765625E-06
-0.1165771484375	2.35748291015625E-06
-0.1141357421875	2.374267578125E-06
-0.1116943359375	2.42767333984375E-06
-0.1092529296875	2.53143310546875E-06
-0.1068115234375	2.5946044921875E-06
-0.1043701171875	2.6654052734375E-06
-0.1019287109375	2.6806640625E-06
-0.0994873046875	2.64862060546875E-06
-0.0970458984375	2.633056640625E-06
-0.0946044921875	2.5860595703125E-06
-0.0921630859375	2.47589111328125E-06
-0.0897216796875	2.41668701171875E-06
-0.0872802734375	2.34161376953125E-06
-0.0848388671875	2.32696533203125E-06
-0.0823974609375	2.3431396484375E-06
-0.0799560546875	2.3602294921875E-06
-0.0775146484375	2.40509033203125E-06
-0.0750732421875	2.5146484375E-06
-0.0726318359375	2.56500244140625E-06
-0.0701904296875	2.64617919921875E-06
-0.0677490234375	2.65960693359375E-06
-0.0653076171875	2.66357421875E-06
-0.0628662109375	2.6348876953125E-06
-0.0604248046875	2.59735107421875E-06
-0.0579833984375	2.49237060546875E-06
-0.0555419921875	2.44232177734375E-06
-0.0531005859375	2.36328125E-06
-0.0506591796875	2.3345947265625E-06
-0.0482177734375	2.32025146484375E-06
-0.0457763671875	2.35809326171875E-06
-0.0433349609375	2.38616943359375E-06
-0.0408935546875	2.467041015625E-06
-0.0384521484375	2.5299072265625E-06
-0.0360107421875	2.6092529296875E-06
-0.0335693359375	2.65899658203125E-06
-0.0311279296875	2.67425537109375E-06
-0.0286865234375	2.62725830078125E-06
-0.0262451171875	2.6123046875E-06
-0.0238037109375	2.545166015625E-06
-0.0213623046875	2.46734619140625E-06
-0.0189208984375	2.396240234375E-06
-0.0164794921875	2.34130859375E-06
-0.0140380859375	2.3199462890625E-06
-0.0115966796875	2.36785888671875E-06
-0.0091552734375	2.3724365234375E-06
-0.0067138671875	2.4212646484375E-06
-0.0042724609375	2.51983642578125E-06
-0.0018310546875	2.5811767578125E-06
0.0006103515625	2.65167236328125E-06
0.0030517578125	2.6654052734375E-06
0.0054931640625	2.63427734375E-06
0.0079345703125	2.61810302734375E-06
0.0103759765625	2.57781982421875E-06
0.0128173828125	2.47589111328125E-06
0.0152587890625	2.4212646484375E-06
0.0177001953125	2.34832763671875E-06
0.0201416015625	2.3394775390625E-06
0.0225830078125	2.3480224609375E-06
0.0250244140625	2.36968994140625E-06
0.0274658203125	2.406005859375E-06
0.0299072265625	2.50640869140625E-06
0.0323486328125	2.554931640625E-06
0.0347900390625	2.63397216796875E-06
0.0372314453125	2.650146484375E-06
0.0396728515625	2.65380859375E-06
0.0421142578125	2.62420654296875E-06
0.0445556640625	2.59368896484375E-06
0.0469970703125	2.50091552734375E-06
0.0494384765625	2.451171875E-06
0.0518798828125	2.3663330078125E-06
0.0543212890625	2.3455810546875E-06
0.0567626953125	2.3321533203125E-06
0.0592041015625	2.36297607421875E-06
0.0616455078125	2.3907470703125E-06
0.0640869140625	2.48046875E-06
0.0665283203125	2.53631591796875E-06
0.0689697265625	2.61016845703125E-06
0.0714111328125	2.6544189453125E-06
0.0738525390625	2.66693115234375E-06
0.0762939453125	2.6220703125E-06
0.0787353515625	2.606201171875E-06
0.0811767578125	2.54058837890625E-06
0.0836181640625	2.47314453125E-06
0.0860595703125	2.4041748046875E-06
0.0885009765625	2.35260009765625E-06
0.0909423828125	2.33245849609375E-06
0.0933837890625	2.3773193359375E-06
0.0958251953125	2.38555908203125E-06
0.0982666015625	2.43316650390625E-06
0.1007080078125	2.52899169921875E-06
0.1031494140625	2.58941650390625E-06
0.1055908203125	2.650146484375E-06
0.1080322265625	2.66448974609375E-06
0.1104736328125	2.6324462890625E-06
0.1129150390625	2.61810302734375E-06
0.1153564453125	2.58331298828125E-06
0.1177978515625	2.48443603515625E-06
0.1202392578125	2.4371337890625E-06
0.1226806640625	2.3699951171875E-06
0.1251220703125	2.35626220703125E-06
0.1275634765625	2.35870361328125E-06
0.1300048828125	2.3748779296875E-06
0.1324462890625	2.412109375E-06
0.1348876953125	2.51190185546875E-06
0.1373291015625	2.56134033203125E-06
0.1397705078125	2.63763427734375E-06
0.1422119140625	2.65533447265625E-06
0.1446533203125	2.66632080078125E-06
0.1470947265625	2.62939453125E-06
0.1495361328125	2.60406494140625E-06
0.1519775390625	2.52410888671875E-06
0.1544189453125	2.4774169921875E-06
0.1568603515625	2.40753173828125E-06
0.1593017578125	2.3736572265625E-06
0.1617431640625	2.352294921875E-06
0.1641845703125	2.3919677734375E-06
0.1666259765625	2.40631103515625E-06
0.1690673828125	2.474365234375E-06
0.1715087890625	2.54486083984375E-06
0.1739501953125	2.6153564453125E-06
0.1763916015625	2.66510009765625E-06
0.1788330078125	2.6788330078125E-06
0.1812744140625	2.62725830078125E-06
0.1837158203125	2.61871337890625E-06
0.1861572265625	2.5762939453125E-06
0.1885986328125	2.491455078125E-06
0.1910400390625	2.44293212890625E-06
0.1934814453125	2.37762451171875E-06
0.1959228515625	2.35565185546875E-06
0.1983642578125	2.37762451171875E-06
0.2008056640625	2.38677978515625E-06
0.2032470703125	2.4224853515625E-06
0.2056884765625	2.52349853515625E-06
0.2081298828125	2.57720947265625E-06
0.2105712890625	2.64923095703125E-06
0.2130126953125	2.65716552734375E-06
0.2154541015625	2.65045166015625E-06
0.2178955078125	2.628173828125E-06
0.2203369140625	2.6007080078125E-06
0.2227783203125	2.5146484375E-06
0.2252197265625	2.4822998046875E-06
0.2276611328125	2.41363525390625E-06
0.2301025390625	2.39410400390625E-06
0.2325439453125	2.37396240234375E-06
0.2349853515625	2.3968505859375E-06
0.2374267578125	2.42584228515625E-06
0.2398681640625	2.51434326171875E-06
0.2423095703125	2.5732421875E-06
0.2447509765625	2.64801025390625E-06
0.2471923828125	2.6873779296875E-06
0.2496337890625	2.69805908203125E-06
0.2520751953125	2.6513671875E-06
0.2545166015625	2.6458740234375E-06
0.2569580078125	2.593994140625E-06
0.2593994140625	2.5433349609375E-06
0.2618408203125	2.48565673828125E-06
0.2642822265625	2.432861328125E-06
0.2667236328125	2.40966796875E-06
0.2691650390625	2.44964599609375E-06
0.2716064453125	2.4554443359375E-06
0.2740478515625	2.50274658203125E-06
0.2764892578125	2.603759765625E-06
0.2789306640625	2.666015625E-06
0.2813720703125	2.7313232421875E-06
0.2838134765625	2.7435302734375E-06
0.2862548828125	2.71240234375E-06
0.2886962890625	2.7032470703125E-06
0.2911376953125	2.68280029296875E-06
0.2935791015625	2.607421875E-06
0.2960205078125	2.574462890625E-06
0.2984619140625	2.5128173828125E-06
0.3009033203125	2.49786376953125E-06
0.3033447265625	2.493896484375E-06
0.3057861328125	2.5103759765625E-06
0.3082275390625	2.5494384765625E-06
0.3106689453125	2.6544189453125E-06
0.3131103515625	2.708740234375E-06
0.3155517578125	2.783203125E-06
0.3179931640625	2.7978515625E-06
0.3204345703125	2.802734375E-06
0.3228759765625	2.76763916015625E-06
0.3253173828125	2.74932861328125E-06
0.3277587890625	2.68524169921875E-06
0.3302001953125	2.65228271484375E-06
0.3326416015625	2.59307861328125E-06
0.3350830078125	2.55462646484375E-06
0.3375244140625	2.525634765625E-06
0.3399658203125	2.56072998046875E-06
0.3424072265625	2.57659912109375E-06
0.3448486328125	2.646484375E-06
0.3472900390625	2.725830078125E-06
0.3497314453125	2.79541015625E-06
0.3521728515625	2.84820556640625E-06
0.3546142578125	2.862548828125E-06
0.3570556640625	2.81005859375E-06
0.3594970703125	2.81219482421875E-06
0.3619384765625	2.78900146484375E-06
0.3643798828125	2.72308349609375E-06
0.3668212890625	2.69012451171875E-06
0.3692626953125	2.62939453125E-06
0.3717041015625	2.60955810546875E-06
0.3741455078125	2.62939453125E-06
0.3765869140625	2.64068603515625E-06
0.3790283203125	2.68218994140625E-06
0.3814697265625	2.794189453125E-06
0.3839111328125	2.85308837890625E-06
0.3863525390625	2.92694091796875E-06
0.3887939453125	2.9364013671875E-06
0.3912353515625	2.9296875E-06
0.3936767578125	2.916259765625E-06
0.3961181640625	2.90435791015625E-06
0.3985595703125	2.8375244140625E-06
0.4010009765625	2.8204345703125E-06
0.4034423828125	2.760009765625E-06
0.4058837890625	2.742919921875E-06
0.4083251953125	2.71697998046875E-06
0.4107666015625	2.74810791015625E-06
0.4132080078125	2.78533935546875E-06
0.4156494140625	2.88238525390625E-06
0.4180908203125	2.94921875E-06
0.4205322265625	3.02886962890625E-06
0.4229736328125	3.06488037109375E-06
0.4254150390625	3.07830810546875E-06
0.4278564453125	3.0389404296875E-06
0.4302978515625	3.040771484375E-06
0.4327392578125	3.00567626953125E-06
0.4351806640625	2.97332763671875E-06
0.4376220703125	2.9290771484375E-06
0.4400634765625	2.88360595703125E-06
0.4425048828125	2.85736083984375E-06
0.4449462890625	2.8973388671875E-06
0.4473876953125	2.9119873046875E-06
0.4498291015625	2.9693603515625E-06
0.4522705078125	3.08013916015625E-06
0.4547119140625	3.14727783203125E-06
0.4571533203125	3.2110595703125E-06
0.4595947265625	3.22357177734375E-06
0.4620361328125	3.192138671875E-06
0.4644775390625	3.19000244140625E-06
0.4669189453125	3.1884765625E-06
0.4693603515625	3.1219482421875E-06
0.4718017578125	3.10821533203125E-06
0.4742431640625	3.0511474609375E-06
0.4766845703125	3.03619384765625E-06
0.4791259765625	3.03192138671875E-06
0.4815673828125	3.05511474609375E-06
0.4840087890625	3.10272216796875E-06
0.4864501953125	3.22021484375E-06
0.4888916015625	3.28399658203125E-06
0.4913330078125	3.3660888671875E-06
0.4937744140625	3.38623046875E-06
0.4962158203125	3.39874267578125E-06
0.4986572265625	3.372802734375E-06
0.5010986328125	3.37310791015625E-06
0.5035400390625	3.3392333984375E-06
0.5059814453125	3.32733154296875E-06
0.5084228515625	3.28125E-06
0.5108642578125	3.25103759765625E-06
0.5133056640625	3.22967529296875E-06
0.5157470703125	3.27728271484375E-06
0.5181884765625	3.310546875E-06
0.5206298828125	3.39813232421875E-06
0.5230712890625	3.50555419921875E-06
0.5255126953125	3.592529296875E-06
0.5279541015625	3.66180419921875E-06
0.5303955078125	3.6895751953125E-06
0.5328369140625	3.66119384765625E-06
0.5352783203125	3.6859130859375E-06
0.5377197265625	3.70391845703125E-06
0.5401611328125	3.67218017578125E-06
0.5426025390625	3.67706298828125E-06
0.5450439453125	3.6529541015625E-06
0.5474853515625	3.66363525390625E-06
0.5499267578125	3.70697021484375E-06
0.5523681640625	3.76800537109375E-06
0.5548095703125	3.8568115234375E-06
0.5572509765625	4.02801513671875E-06
0.5596923828125	4.1259765625E-06
0.5621337890625	4.266357421875E-06
0.5645751953125	4.3426513671875E-06
0.5670166015625	4.4281005859375E-06
0.5694580078125	4.4952392578125E-06
0.5718994140625	4.5867919921875E-06
0.5743408203125	4.6234130859375E-06
0.5767822265625	4.736328125E-06
0.5792236328125	4.79736328125E-06
0.5816650390625	4.8980712890625E-06
0.5841064453125	5.01708984375E-06
0.5865478515625	5.206298828125E-06
0.5889892578125	5.3955078125E-06
0.5914306640625	5.6610107421875E-06
0.5938720703125	5.9539794921875E-06
0.5963134765625	6.2408447265625E-06
0.5987548828125	6.5216064453125E-06
0.6011962890625	6.7718505859375E-06
0.6036376953125	6.9976806640625E-06
0.6060791015625	7.2967529296875E-06
0.6085205078125	7.6019287109375E-06
0.6109619140625	7.879638671875E-06
0.6134033203125	8.2061767578125E-06
0.6158447265625	8.5296630859375E-06
0.6182861328125	8.9019775390625E-06
0.6207275390625	9.344482421875E-06
0.6231689453125	9.814453125E-06
0.6256103515625	1.03607177734375E-05
0.6280517578125	1.09710693359375E-05
0.6304931640625	1.15570068359375E-05
0.6329345703125	1.2164306640625E-05
0.6353759765625	1.27288818359375E-05
0.6378173828125	1.331787109375E-05
0.6402587890625	1.392822265625E-05
0.6427001953125	1.45751953125E-05
0.6451416015625	1.522216796875E-05
0.6475830078125	1.59210205078125E-05
0.6500244140625	1.6619873046875E-05
0.6524658203125	1.737060546875E-05
0.6549072265625	1.81396484375E-05
0.6573486328125	1.900634765625E-05
0.6597900390625	1.99249267578125E-05
0.6622314453125	2.09197998046875E-05
0.6646728515625	2.19390869140625E-05
0.6671142578125	2.296142578125E-05
0.6695556640625	2.39959716796875E-05
0.6719970703125	2.501220703125E-05
0.6744384765625	2.6043701171875E-05
0.6768798828125	2.713623046875E-05
0.6793212890625	2.825927734375E-05
0.6817626953125	2.9364013671875E-05
0.6842041015625	3.05419921875E-05
0.6866455078125	3.175048828125E-05
0.6890869140625	3.299560546875E-05
0.6915283203125	3.43536376953125E-05
0.6939697265625	3.57574462890625E-05
0.6964111328125	3.72039794921875E-05
0.6988525390625	3.87359619140625E-05
0.7012939453125	4.0252685546875E-05
0.7037353515625	4.17266845703125E-05
0.7061767578125	4.32159423828125E-05
0.7086181640625	4.48455810546875E-05
0.7110595703125	4.64111328125E-05
0.7135009765625	4.8004150390625E-05
0.7159423828125	4.96826171875E-05
0.7183837890625	5.1605224609375E-05
0.7208251953125	5.3375244140625E-05
0.7232666015625	5.5206298828125E-05
0.7257080078125	5.72509765625E-05
0.7281494140625	5.9234619140625E-05
0.7305908203125	6.14013671875E-05
0.7330322265625	6.35986328125E-05
0.7354736328125	6.5887451171875E-05
0.7379150390625	6.817626953125E-05
0.7403564453125	7.0343017578125E-05
0.7427978515625	7.2723388671875E-05
0.7452392578125	7.550048828125E-05
0.7476806640625	7.806396484375E-05
0.7501220703125	8.0657958984375E-05
0.7525634765625	8.31298828125E-05
0.7550048828125	8.5723876953125E-05
0.7574462890625	8.8531494140625E-05
0.7598876953125	9.210205078125E-05
0.7623291015625	9.5367431640625E-05
0.7647705078125	9.930419921875E-05
0.7672119140625	0.000102752685546875
0.7696533203125	0.000106231689453125
0.7720947265625	0.000110260009765625
0.7745361328125	0.00011419677734375
0.7769775390625	0.0001177978515625
0.7794189453125	0.000122039794921875
0.7818603515625	0.00012628173828125
0.7843017578125	0.0001309814453125
0.7867431640625	0.000135498046875
0.7891845703125	0.000141357421875
0.7916259765625	0.000146026611328125
0.7940673828125	0.00015118408203125
0.7965087890625	0.00015753173828125
0.7989501953125	0.000163238525390625
0.8013916015625	0.000169403076171875
0.8038330078125	0.0001756591796875
0.8062744140625	0.000181884765625
0.8087158203125	0.000188629150390625
0.8111572265625	0.000195098876953125
0.8135986328125	0.000202392578125
0.8160400390625	0.00020977783203125
0.8184814453125	0.000217193603515625
0.8209228515625	0.000225311279296875
0.8233642578125	0.000233856201171875
0.8258056640625	0.000242919921875
0.8282470703125	0.000251739501953125
0.8306884765625	0.00026092529296875
0.8331298828125	0.00026995849609375
0.8355712890625	0.0002802734375
0.8380126953125	0.000290771484375
0.8404541015625	0.000302398681640625
0.8428955078125	0.000316680908203125
0.8453369140625	0.0003284912109375
0.8477783203125	0.000339019775390625
0.8502197265625	0.000350677490234375
0.8526611328125	0.00036236572265625
0.8551025390625	0.0003739013671875
0.8575439453125	0.000386627197265625
0.8599853515625	0.00040093994140625
0.8624267578125	0.00041632080078125
0.8648681640625	0.000428680419921875
0.8673095703125	0.00044158935546875
0.8697509765625	0.00045587158203125
0.8721923828125	0.000469512939453125
0.8746337890625	0.000483917236328125
0.8770751953125	0.000499267578125
0.8795166015625	0.0005169677734375
0.8819580078125	0.000533447265625
0.8843994140625	0.000550537109375
0.8868408203125	0.0005657958984375
0.8892822265625	0.0005841064453125
0.8917236328125	0.000604248046875
0.8941650390625	0.0006182861328125
0.8966064453125	0.0006329345703125
0.8990478515625	0.0006524658203125
0.9014892578125	0.00066925048828125
